#  E (eV)   dos(E)     Int dos(E) EFermi =    0.617 eV
 -18.715  0.1392E+00  0.2188E-02
 -18.705  0.1796E+00  0.3785E-02
 -18.695  0.2162E+00  0.5768E-02
 -18.685  0.2491E+00  0.8098E-02
 -18.675  0.2781E+00  0.1074E-01
 -18.665  0.3034E+00  0.1365E-01
 -18.655  0.3248E+00  0.1679E-01
 -18.645  0.3425E+00  0.2013E-01
 -18.635  0.3564E+00  0.2363E-01
 -18.625  0.3665E+00  0.2725E-01
 -18.615  0.3728E+00  0.3095E-01
 -18.605  0.3801E+00  0.3469E-01
 -18.595  0.3926E+00  0.3861E-01
 -18.585  0.3391E+00  0.4233E-01
 -18.575  0.2746E+00  0.4528E-01
 -18.565  0.2765E+00  0.4803E-01
 -18.555  0.2784E+00  0.5081E-01
 -18.545  0.2803E+00  0.5360E-01
 -18.535  0.2822E+00  0.5641E-01
 -18.525  0.2841E+00  0.5925E-01
 -18.515  0.2860E+00  0.6210E-01
 -18.505  0.2879E+00  0.6496E-01
 -18.495  0.2897E+00  0.6785E-01
 -18.485  0.2916E+00  0.7076E-01
 -18.475  0.2935E+00  0.7368E-01
 -18.465  0.2953E+00  0.7663E-01
 -18.455  0.2972E+00  0.7959E-01
 -18.445  0.2990E+00  0.8257E-01
 -18.435  0.3008E+00  0.8557E-01
 -18.425  0.3026E+00  0.8859E-01
 -18.415  0.3045E+00  0.9162E-01
 -18.405  0.3063E+00  0.9468E-01
 -18.395  0.3081E+00  0.9775E-01
 -18.385  0.3099E+00  0.1008E+00
 -18.375  0.3117E+00  0.1039E+00
 -18.365  0.3135E+00  0.1071E+00
 -18.355  0.3152E+00  0.1102E+00
 -18.345  0.3170E+00  0.1134E+00
 -18.335  0.3188E+00  0.1166E+00
 -18.325  0.3205E+00  0.1198E+00
 -18.315  0.3223E+00  0.1230E+00
 -18.305  0.3240E+00  0.1262E+00
 -18.295  0.3258E+00  0.1294E+00
 -18.285  0.3275E+00  0.1327E+00
 -18.275  0.3292E+00  0.1360E+00
 -18.265  0.3311E+00  0.1393E+00
 -18.255  0.3330E+00  0.1426E+00
 -18.245  0.3297E+00  0.1459E+00
 -18.235  0.3259E+00  0.1492E+00
 -18.225  0.3224E+00  0.1525E+00
 -18.215  0.3192E+00  0.1557E+00
 -18.205  0.3162E+00  0.1588E+00
 -18.195  0.3134E+00  0.1620E+00
 -18.185  0.3109E+00  0.1651E+00
 -18.175  0.3087E+00  0.1682E+00
 -18.165  0.3067E+00  0.1713E+00
 -18.155  0.3050E+00  0.1743E+00
 -18.145  0.3036E+00  0.1774E+00
 -18.135  0.3024E+00  0.1804E+00
 -18.125  0.3014E+00  0.1834E+00
 -18.115  0.3007E+00  0.1864E+00
 -18.105  0.2997E+00  0.1894E+00
 -18.095  0.2983E+00  0.1924E+00
 -18.085  0.2975E+00  0.1954E+00
 -18.075  0.2982E+00  0.1984E+00
 -18.065  0.2988E+00  0.2014E+00
 -18.055  0.2995E+00  0.2044E+00
 -18.045  0.3001E+00  0.2074E+00
 -18.035  0.3007E+00  0.2104E+00
 -18.025  0.3014E+00  0.2134E+00
 -18.015  0.3020E+00  0.2164E+00
 -18.005  0.3027E+00  0.2194E+00
 -17.995  0.3033E+00  0.2224E+00
 -17.985  0.3039E+00  0.2255E+00
 -17.975  0.3046E+00  0.2285E+00
 -17.965  0.3052E+00  0.2316E+00
 -17.955  0.3059E+00  0.2346E+00
 -17.945  0.3065E+00  0.2377E+00
 -17.935  0.3071E+00  0.2408E+00
 -17.925  0.3078E+00  0.2438E+00
 -17.915  0.3084E+00  0.2469E+00
 -17.905  0.3090E+00  0.2500E+00
 -17.895  0.3097E+00  0.2531E+00
 -17.885  0.3103E+00  0.2562E+00
 -17.875  0.3109E+00  0.2593E+00
 -17.865  0.3116E+00  0.2624E+00
 -17.855  0.3122E+00  0.2655E+00
 -17.845  0.3128E+00  0.2687E+00
 -17.835  0.3135E+00  0.2718E+00
 -17.825  0.3141E+00  0.2749E+00
 -17.815  0.3147E+00  0.2781E+00
 -17.805  0.3154E+00  0.2812E+00
 -17.795  0.3160E+00  0.2844E+00
 -17.785  0.3166E+00  0.2875E+00
 -17.775  0.3173E+00  0.2907E+00
 -17.765  0.3179E+00  0.2939E+00
 -17.755  0.3185E+00  0.2971E+00
 -17.745  0.3191E+00  0.3003E+00
 -17.735  0.3198E+00  0.3035E+00
 -17.725  0.3204E+00  0.3067E+00
 -17.715  0.3210E+00  0.3099E+00
 -17.705  0.3216E+00  0.3131E+00
 -17.695  0.3223E+00  0.3163E+00
 -17.685  0.3229E+00  0.3195E+00
 -17.675  0.3235E+00  0.3228E+00
 -17.665  0.3241E+00  0.3260E+00
 -17.655  0.3248E+00  0.3292E+00
 -17.645  0.3254E+00  0.3325E+00
 -17.635  0.3260E+00  0.3357E+00
 -17.625  0.3267E+00  0.3390E+00
 -17.615  0.3219E+00  0.3423E+00
 -17.605  0.3113E+00  0.3454E+00
 -17.595  0.3107E+00  0.3485E+00
 -17.585  0.3105E+00  0.3516E+00
 -17.575  0.3102E+00  0.3547E+00
 -17.565  0.3100E+00  0.3578E+00
 -17.555  0.3098E+00  0.3609E+00
 -17.545  0.3096E+00  0.3640E+00
 -17.535  0.3094E+00  0.3671E+00
 -17.525  0.3093E+00  0.3702E+00
 -17.515  0.3091E+00  0.3733E+00
 -17.505  0.3090E+00  0.3764E+00
 -17.495  0.3088E+00  0.3795E+00
 -17.485  0.3087E+00  0.3826E+00
 -17.475  0.3086E+00  0.3857E+00
 -17.465  0.3085E+00  0.3888E+00
 -17.455  0.3084E+00  0.3918E+00
 -17.445  0.3083E+00  0.3949E+00
 -17.435  0.3083E+00  0.3980E+00
 -17.425  0.3082E+00  0.4011E+00
 -17.415  0.3082E+00  0.4042E+00
 -17.405  0.3082E+00  0.4073E+00
 -17.395  0.3081E+00  0.4103E+00
 -17.385  0.3081E+00  0.4134E+00
 -17.375  0.3082E+00  0.4165E+00
 -17.365  0.3082E+00  0.4196E+00
 -17.355  0.3082E+00  0.4227E+00
 -17.345  0.3083E+00  0.4258E+00
 -17.335  0.3083E+00  0.4288E+00
 -17.325  0.3084E+00  0.4319E+00
 -17.315  0.3085E+00  0.4350E+00
 -17.305  0.3086E+00  0.4381E+00
 -17.295  0.3086E+00  0.4412E+00
 -17.285  0.3086E+00  0.4443E+00
 -17.275  0.3084E+00  0.4473E+00
 -17.265  0.3088E+00  0.4504E+00
 -17.255  0.3091E+00  0.4535E+00
 -17.245  0.3095E+00  0.4566E+00
 -17.235  0.3098E+00  0.4597E+00
 -17.225  0.3102E+00  0.4628E+00
 -17.215  0.3105E+00  0.4659E+00
 -17.205  0.3109E+00  0.4690E+00
 -17.195  0.3112E+00  0.4721E+00
 -17.185  0.3116E+00  0.4752E+00
 -17.175  0.3119E+00  0.4784E+00
 -17.165  0.3123E+00  0.4815E+00
 -17.155  0.3126E+00  0.4846E+00
 -17.145  0.3130E+00  0.4877E+00
 -17.135  0.3133E+00  0.4909E+00
 -17.125  0.3137E+00  0.4940E+00
 -17.115  0.3140E+00  0.4971E+00
 -17.105  0.3143E+00  0.5003E+00
 -17.095  0.3147E+00  0.5034E+00
 -17.085  0.3150E+00  0.5066E+00
 -17.075  0.3154E+00  0.5097E+00
 -17.065  0.3157E+00  0.5129E+00
 -17.055  0.3161E+00  0.5160E+00
 -17.045  0.3164E+00  0.5192E+00
 -17.035  0.3168E+00  0.5224E+00
 -17.025  0.3171E+00  0.5255E+00
 -17.015  0.3175E+00  0.5287E+00
 -17.005  0.3178E+00  0.5319E+00
 -16.995  0.3182E+00  0.5351E+00
 -16.985  0.3185E+00  0.5383E+00
 -16.975  0.3188E+00  0.5414E+00
 -16.965  0.3192E+00  0.5446E+00
 -16.955  0.3195E+00  0.5478E+00
 -16.945  0.3199E+00  0.5510E+00
 -16.935  0.3202E+00  0.5542E+00
 -16.925  0.3206E+00  0.5574E+00
 -16.915  0.3209E+00  0.5606E+00
 -16.905  0.3213E+00  0.5638E+00
 -16.895  0.3216E+00  0.5671E+00
 -16.885  0.3220E+00  0.5703E+00
 -16.875  0.3223E+00  0.5735E+00
 -16.865  0.3226E+00  0.5767E+00
 -16.855  0.3230E+00  0.5799E+00
 -16.845  0.3233E+00  0.5832E+00
 -16.835  0.3237E+00  0.5864E+00
 -16.825  0.3240E+00  0.5897E+00
 -16.815  0.3243E+00  0.5929E+00
 -16.805  0.3247E+00  0.5961E+00
 -16.795  0.3230E+00  0.5994E+00
 -16.785  0.3220E+00  0.6026E+00
 -16.775  0.3210E+00  0.6058E+00
 -16.765  0.3202E+00  0.6090E+00
 -16.755  0.3193E+00  0.6122E+00
 -16.745  0.3186E+00  0.6154E+00
 -16.735  0.3178E+00  0.6186E+00
 -16.725  0.3172E+00  0.6218E+00
 -16.715  0.3166E+00  0.6249E+00
 -16.705  0.3160E+00  0.6281E+00
 -16.695  0.3155E+00  0.6313E+00
 -16.685  0.3151E+00  0.6344E+00
 -16.675  0.3147E+00  0.6376E+00
 -16.665  0.3143E+00  0.6407E+00
 -16.655  0.3138E+00  0.6438E+00
 -16.645  0.3132E+00  0.6470E+00
 -16.635  0.3120E+00  0.6501E+00
 -16.625  0.3121E+00  0.6532E+00
 -16.615  0.3122E+00  0.6563E+00
 -16.605  0.3123E+00  0.6595E+00
 -16.595  0.3124E+00  0.6626E+00
 -16.585  0.3125E+00  0.6657E+00
 -16.575  0.3126E+00  0.6688E+00
 -16.565  0.3127E+00  0.6720E+00
 -16.555  0.3128E+00  0.6751E+00
 -16.545  0.3129E+00  0.6782E+00
 -16.535  0.3130E+00  0.6813E+00
 -16.525  0.3131E+00  0.6845E+00
 -16.515  0.3133E+00  0.6876E+00
 -16.505  0.3134E+00  0.6907E+00
 -16.495  0.3135E+00  0.6939E+00
 -16.485  0.3136E+00  0.6970E+00
 -16.475  0.3137E+00  0.7002E+00
 -16.465  0.3139E+00  0.7033E+00
 -16.455  0.3140E+00  0.7064E+00
 -16.445  0.3141E+00  0.7096E+00
 -16.435  0.3143E+00  0.7127E+00
 -16.425  0.3144E+00  0.7159E+00
 -16.415  0.3145E+00  0.7190E+00
 -16.405  0.3147E+00  0.7221E+00
 -16.395  0.3148E+00  0.7253E+00
 -16.385  0.3149E+00  0.7284E+00
 -16.375  0.3151E+00  0.7316E+00
 -16.365  0.3152E+00  0.7347E+00
 -16.355  0.3154E+00  0.7379E+00
 -16.345  0.3155E+00  0.7411E+00
 -16.335  0.3157E+00  0.7442E+00
 -16.325  0.3158E+00  0.7474E+00
 -16.315  0.3160E+00  0.7505E+00
 -16.305  0.3161E+00  0.7537E+00
 -16.295  0.3163E+00  0.7568E+00
 -16.285  0.3165E+00  0.7600E+00
 -16.275  0.3166E+00  0.7632E+00
 -16.265  0.3168E+00  0.7663E+00
 -16.255  0.3169E+00  0.7695E+00
 -16.245  0.3171E+00  0.7727E+00
 -16.235  0.3173E+00  0.7759E+00
 -16.225  0.3175E+00  0.7790E+00
 -16.215  0.3176E+00  0.7822E+00
 -16.205  0.3178E+00  0.7854E+00
 -16.195  0.3180E+00  0.7886E+00
 -16.185  0.3182E+00  0.7917E+00
 -16.175  0.3183E+00  0.7949E+00
 -16.165  0.3177E+00  0.7981E+00
 -16.155  0.3170E+00  0.8013E+00
 -16.145  0.3172E+00  0.8044E+00
 -16.135  0.3175E+00  0.8076E+00
 -16.125  0.3177E+00  0.8108E+00
 -16.115  0.3180E+00  0.8140E+00
 -16.105  0.3182E+00  0.8172E+00
 -16.095  0.3185E+00  0.8203E+00
 -16.085  0.3187E+00  0.8235E+00
 -16.075  0.3190E+00  0.8267E+00
 -16.065  0.3192E+00  0.8299E+00
 -16.055  0.3195E+00  0.8331E+00
 -16.045  0.3197E+00  0.8363E+00
 -16.035  0.3200E+00  0.8395E+00
 -16.025  0.3203E+00  0.8427E+00
 -16.015  0.3205E+00  0.8459E+00
 -16.005  0.3208E+00  0.8491E+00
 -15.995  0.3210E+00  0.8523E+00
 -15.985  0.3213E+00  0.8555E+00
 -15.975  0.3215E+00  0.8587E+00
 -15.965  0.3218E+00  0.8620E+00
 -15.955  0.3221E+00  0.8652E+00
 -15.945  0.3223E+00  0.8684E+00
 -15.935  0.3226E+00  0.8716E+00
 -15.925  0.3228E+00  0.8749E+00
 -15.915  0.3231E+00  0.8781E+00
 -15.905  0.3234E+00  0.8813E+00
 -15.895  0.3236E+00  0.8845E+00
 -15.885  0.3239E+00  0.8878E+00
 -15.875  0.3242E+00  0.8910E+00
 -15.865  0.3244E+00  0.8943E+00
 -15.855  0.3247E+00  0.8975E+00
 -15.845  0.3250E+00  0.9008E+00
 -15.835  0.3252E+00  0.9040E+00
 -15.825  0.3255E+00  0.9073E+00
 -15.815  0.3258E+00  0.9105E+00
 -15.805  0.3261E+00  0.9138E+00
 -15.795  0.3263E+00  0.9170E+00
 -15.785  0.3266E+00  0.9203E+00
 -15.775  0.3269E+00  0.9236E+00
 -15.765  0.3271E+00  0.9268E+00
 -15.755  0.3274E+00  0.9301E+00
 -15.745  0.3277E+00  0.9334E+00
 -15.735  0.3280E+00  0.9367E+00
 -15.725  0.3282E+00  0.9400E+00
 -15.715  0.3267E+00  0.9432E+00
 -15.705  0.3233E+00  0.9465E+00
 -15.695  0.3213E+00  0.9497E+00
 -15.685  0.3185E+00  0.9529E+00
 -15.675  0.3186E+00  0.9561E+00
 -15.665  0.3186E+00  0.9593E+00
 -15.655  0.3187E+00  0.9624E+00
 -15.645  0.3188E+00  0.9656E+00
 -15.635  0.3189E+00  0.9688E+00
 -15.625  0.3190E+00  0.9720E+00
 -15.615  0.3191E+00  0.9752E+00
 -15.605  0.3192E+00  0.9784E+00
 -15.595  0.3193E+00  0.9816E+00
 -15.585  0.3194E+00  0.9848E+00
 -15.575  0.3195E+00  0.9880E+00
 -15.565  0.3196E+00  0.9912E+00
 -15.555  0.3197E+00  0.9944E+00
 -15.545  0.3198E+00  0.9976E+00
 -15.535  0.3200E+00  0.1001E+01
 -15.525  0.3201E+00  0.1004E+01
 -15.515  0.3203E+00  0.1007E+01
 -15.505  0.3204E+00  0.1010E+01
 -15.495  0.3205E+00  0.1014E+01
 -15.485  0.3207E+00  0.1017E+01
 -15.475  0.3209E+00  0.1020E+01
 -15.465  0.3210E+00  0.1023E+01
 -15.455  0.3212E+00  0.1026E+01
 -15.445  0.3214E+00  0.1030E+01
 -15.435  0.3215E+00  0.1033E+01
 -15.425  0.3217E+00  0.1036E+01
 -15.415  0.3219E+00  0.1039E+01
 -15.405  0.3221E+00  0.1042E+01
 -15.395  0.3224E+00  0.1046E+01
 -15.385  0.3208E+00  0.1049E+01
 -15.375  0.3168E+00  0.1052E+01
 -15.365  0.3140E+00  0.1055E+01
 -15.355  0.3113E+00  0.1058E+01
 -15.345  0.3103E+00  0.1062E+01
 -15.335  0.3105E+00  0.1065E+01
 -15.325  0.3108E+00  0.1068E+01
 -15.315  0.3110E+00  0.1071E+01
 -15.305  0.3113E+00  0.1074E+01
 -15.295  0.3115E+00  0.1077E+01
 -15.285  0.3117E+00  0.1080E+01
 -15.275  0.3119E+00  0.1083E+01
 -15.265  0.3122E+00  0.1086E+01
 -15.255  0.3124E+00  0.1090E+01
 -15.245  0.3126E+00  0.1093E+01
 -15.235  0.3129E+00  0.1096E+01
 -15.225  0.3131E+00  0.1099E+01
 -15.215  0.3134E+00  0.1102E+01
 -15.205  0.3137E+00  0.1105E+01
 -15.195  0.3140E+00  0.1108E+01
 -15.185  0.3142E+00  0.1111E+01
 -15.175  0.3145E+00  0.1115E+01
 -15.165  0.3148E+00  0.1118E+01
 -15.155  0.3151E+00  0.1121E+01
 -15.145  0.3154E+00  0.1124E+01
 -15.135  0.3158E+00  0.1127E+01
 -15.125  0.3161E+00  0.1130E+01
 -15.115  0.3164E+00  0.1134E+01
 -15.105  0.3167E+00  0.1137E+01
 -15.095  0.3171E+00  0.1140E+01
 -15.085  0.3174E+00  0.1143E+01
 -15.075  0.3178E+00  0.1146E+01
 -15.065  0.3182E+00  0.1149E+01
 -15.055  0.3185E+00  0.1153E+01
 -15.045  0.3189E+00  0.1156E+01
 -15.035  0.3193E+00  0.1159E+01
 -15.025  0.3197E+00  0.1162E+01
 -15.015  0.3201E+00  0.1165E+01
 -15.005  0.3205E+00  0.1169E+01
 -14.995  0.3209E+00  0.1172E+01
 -14.985  0.3213E+00  0.1175E+01
 -14.975  0.3217E+00  0.1178E+01
 -14.965  0.3221E+00  0.1181E+01
 -14.955  0.3226E+00  0.1185E+01
 -14.945  0.3230E+00  0.1188E+01
 -14.935  0.3234E+00  0.1191E+01
 -14.925  0.3239E+00  0.1194E+01
 -14.915  0.3244E+00  0.1198E+01
 -14.905  0.3248E+00  0.1201E+01
 -14.895  0.3253E+00  0.1204E+01
 -14.885  0.3258E+00  0.1207E+01
 -14.875  0.3263E+00  0.1211E+01
 -14.865  0.3267E+00  0.1214E+01
 -14.855  0.3272E+00  0.1217E+01
 -14.845  0.3278E+00  0.1220E+01
 -14.835  0.3283E+00  0.1224E+01
 -14.825  0.3288E+00  0.1227E+01
 -14.815  0.3293E+00  0.1230E+01
 -14.805  0.3298E+00  0.1234E+01
 -14.795  0.3304E+00  0.1237E+01
 -14.785  0.3310E+00  0.1240E+01
 -14.775  0.3306E+00  0.1243E+01
 -14.765  0.3282E+00  0.1247E+01
 -14.755  0.3261E+00  0.1250E+01
 -14.745  0.3254E+00  0.1253E+01
 -14.735  0.3247E+00  0.1257E+01
 -14.725  0.3241E+00  0.1260E+01
 -14.715  0.3234E+00  0.1263E+01
 -14.705  0.3233E+00  0.1266E+01
 -14.695  0.3240E+00  0.1269E+01
 -14.685  0.3247E+00  0.1273E+01
 -14.675  0.3254E+00  0.1276E+01
 -14.665  0.3260E+00  0.1279E+01
 -14.655  0.3267E+00  0.1282E+01
 -14.645  0.3273E+00  0.1286E+01
 -14.635  0.3280E+00  0.1289E+01
 -14.625  0.3286E+00  0.1292E+01
 -14.615  0.3292E+00  0.1296E+01
 -14.605  0.3298E+00  0.1299E+01
 -14.595  0.3304E+00  0.1302E+01
 -14.585  0.3311E+00  0.1306E+01
 -14.575  0.3317E+00  0.1309E+01
 -14.565  0.3323E+00  0.1312E+01
 -14.555  0.3329E+00  0.1315E+01
 -14.545  0.3336E+00  0.1319E+01
 -14.535  0.3342E+00  0.1322E+01
 -14.525  0.3349E+00  0.1325E+01
 -14.515  0.3355E+00  0.1329E+01
 -14.505  0.3362E+00  0.1332E+01
 -14.495  0.3368E+00  0.1336E+01
 -14.485  0.3372E+00  0.1339E+01
 -14.475  0.3372E+00  0.1342E+01
 -14.465  0.3311E+00  0.1346E+01
 -14.455  0.3219E+00  0.1349E+01
 -14.445  0.3133E+00  0.1352E+01
 -14.435  0.3105E+00  0.1355E+01
 -14.425  0.3157E+00  0.1358E+01
 -14.415  0.3205E+00  0.1362E+01
 -14.405  0.3245E+00  0.1365E+01
 -14.395  0.3282E+00  0.1368E+01
 -14.385  0.3312E+00  0.1371E+01
 -14.375  0.3337E+00  0.1375E+01
 -14.365  0.3357E+00  0.1378E+01
 -14.355  0.3372E+00  0.1381E+01
 -14.345  0.3393E+00  0.1385E+01
 -14.335  0.3423E+00  0.1388E+01
 -14.325  0.3423E+00  0.1392E+01
 -14.315  0.3330E+00  0.1395E+01
 -14.305  0.3256E+00  0.1398E+01
 -14.295  0.3232E+00  0.1401E+01
 -14.285  0.3209E+00  0.1405E+01
 -14.275  0.3186E+00  0.1408E+01
 -14.265  0.3163E+00  0.1411E+01
 -14.255  0.3165E+00  0.1414E+01
 -14.245  0.3182E+00  0.1417E+01
 -14.235  0.3198E+00  0.1421E+01
 -14.225  0.3213E+00  0.1424E+01
 -14.215  0.3229E+00  0.1427E+01
 -14.205  0.3244E+00  0.1430E+01
 -14.195  0.3259E+00  0.1434E+01
 -14.185  0.3274E+00  0.1437E+01
 -14.175  0.3289E+00  0.1440E+01
 -14.165  0.3304E+00  0.1443E+01
 -14.155  0.3318E+00  0.1447E+01
 -14.145  0.3332E+00  0.1450E+01
 -14.135  0.3346E+00  0.1453E+01
 -14.125  0.3361E+00  0.1457E+01
 -14.115  0.3376E+00  0.1460E+01
 -14.105  0.3391E+00  0.1463E+01
 -14.095  0.3406E+00  0.1467E+01
 -14.085  0.3422E+00  0.1470E+01
 -14.075  0.3438E+00  0.1474E+01
 -14.065  0.3454E+00  0.1477E+01
 -14.055  0.3471E+00  0.1481E+01
 -14.045  0.3487E+00  0.1484E+01
 -14.035  0.3504E+00  0.1488E+01
 -14.025  0.3521E+00  0.1491E+01
 -14.015  0.3539E+00  0.1495E+01
 -14.005  0.3556E+00  0.1498E+01
 -13.995  0.3574E+00  0.1502E+01
 -13.985  0.3592E+00  0.1505E+01
 -13.975  0.3611E+00  0.1509E+01
 -13.965  0.3630E+00  0.1513E+01
 -13.955  0.3648E+00  0.1516E+01
 -13.945  0.3668E+00  0.1520E+01
 -13.935  0.3687E+00  0.1523E+01
 -13.925  0.3707E+00  0.1527E+01
 -13.915  0.3727E+00  0.1531E+01
 -13.905  0.3747E+00  0.1535E+01
 -13.895  0.3768E+00  0.1538E+01
 -13.885  0.3790E+00  0.1542E+01
 -13.875  0.3786E+00  0.1546E+01
 -13.865  0.3739E+00  0.1550E+01
 -13.855  0.3688E+00  0.1553E+01
 -13.845  0.3637E+00  0.1557E+01
 -13.835  0.3585E+00  0.1561E+01
 -13.825  0.3542E+00  0.1564E+01
 -13.815  0.3518E+00  0.1568E+01
 -13.805  0.3498E+00  0.1571E+01
 -13.795  0.3486E+00  0.1575E+01
 -13.785  0.3603E+00  0.1578E+01
 -13.775  0.3890E+00  0.1582E+01
 -13.765  0.4295E+00  0.1586E+01
 -13.755  0.4658E+00  0.1591E+01
 -13.745  0.4970E+00  0.1595E+01
 -13.735  0.5229E+00  0.1601E+01
 -13.725  0.5436E+00  0.1606E+01
 -13.715  0.5634E+00  0.1611E+01
 -13.705  0.5830E+00  0.1617E+01
 -13.695  0.5967E+00  0.1623E+01
 -13.685  0.6047E+00  0.1629E+01
 -13.675  0.6068E+00  0.1635E+01
 -13.665  0.6033E+00  0.1641E+01
 -13.655  0.5947E+00  0.1647E+01
 -13.645  0.5855E+00  0.1653E+01
 -13.635  0.5761E+00  0.1659E+01
 -13.625  0.5665E+00  0.1665E+01
 -13.615  0.5568E+00  0.1670E+01
 -13.605  0.5470E+00  0.1676E+01
 -13.595  0.5370E+00  0.1681E+01
 -13.585  0.5269E+00  0.1686E+01
 -13.575  0.5166E+00  0.1692E+01
 -13.565  0.5062E+00  0.1697E+01
 -13.555  0.4956E+00  0.1702E+01
 -13.545  0.4849E+00  0.1707E+01
 -13.535  0.4740E+00  0.1712E+01
 -13.525  0.4630E+00  0.1716E+01
 -13.515  0.4519E+00  0.1721E+01
 -13.505  0.4406E+00  0.1725E+01
 -13.495  0.4291E+00  0.1730E+01
 -13.485  0.4176E+00  0.1734E+01
 -13.475  0.4058E+00  0.1738E+01
 -13.465  0.3939E+00  0.1742E+01
 -13.455  0.3819E+00  0.1746E+01
 -13.445  0.3697E+00  0.1750E+01
 -13.435  0.3574E+00  0.1753E+01
 -13.425  0.3450E+00  0.1757E+01
 -13.415  0.3323E+00  0.1760E+01
 -13.405  0.3196E+00  0.1763E+01
 -13.395  0.3116E+00  0.1767E+01
 -13.385  0.3073E+00  0.1770E+01
 -13.375  0.3029E+00  0.1773E+01
 -13.365  0.2985E+00  0.1776E+01
 -13.355  0.2941E+00  0.1779E+01
 -13.345  0.2897E+00  0.1782E+01
 -13.335  0.2852E+00  0.1784E+01
 -13.325  0.2807E+00  0.1787E+01
 -13.315  0.2771E+00  0.1790E+01
 -13.305  0.2749E+00  0.1793E+01
 -13.295  0.2728E+00  0.1796E+01
 -13.285  0.2708E+00  0.1798E+01
 -13.275  0.2687E+00  0.1801E+01
 -13.265  0.2667E+00  0.1804E+01
 -13.255  0.2648E+00  0.1806E+01
 -13.245  0.2628E+00  0.1809E+01
 -13.235  0.2609E+00  0.1812E+01
 -13.225  0.2589E+00  0.1814E+01
 -13.215  0.2569E+00  0.1817E+01
 -13.205  0.2550E+00  0.1819E+01
 -13.195  0.2530E+00  0.1822E+01
 -13.185  0.2511E+00  0.1824E+01
 -13.175  0.2491E+00  0.1827E+01
 -13.165  0.2471E+00  0.1829E+01
 -13.155  0.2451E+00  0.1832E+01
 -13.145  0.2431E+00  0.1834E+01
 -13.135  0.2411E+00  0.1837E+01
 -13.125  0.2391E+00  0.1839E+01
 -13.115  0.2370E+00  0.1841E+01
 -13.105  0.2350E+00  0.1844E+01
 -13.095  0.2329E+00  0.1846E+01
 -13.085  0.2309E+00  0.1848E+01
 -13.075  0.2288E+00  0.1851E+01
 -13.065  0.2268E+00  0.1853E+01
 -13.055  0.2247E+00  0.1855E+01
 -13.045  0.2226E+00  0.1858E+01
 -13.035  0.2205E+00  0.1860E+01
 -13.025  0.2179E+00  0.1862E+01
 -13.015  0.2108E+00  0.1864E+01
 -13.005  0.2010E+00  0.1866E+01
 -12.995  0.1736E+00  0.1868E+01
 -12.985  0.1619E+00  0.1870E+01
 -12.975  0.2181E+00  0.1872E+01
 -12.965  0.3051E+00  0.1874E+01
 -12.955  0.4271E+00  0.1878E+01
 -12.945  0.5952E+00  0.1883E+01
 -12.935  0.7033E+00  0.1889E+01
 -12.925  0.6995E+00  0.1897E+01
 -12.915  0.6082E+00  0.1903E+01
 -12.905  0.5148E+00  0.1909E+01
 -12.895  0.4290E+00  0.1913E+01
 -12.885  0.3400E+00  0.1917E+01
 -12.875  0.2479E+00  0.1920E+01
 -12.865  0.1842E+00  0.1922E+01
 -12.855  0.1555E+00  0.1924E+01
 -12.845  0.1334E+00  0.1925E+01
 -12.835  0.1176E+00  0.1927E+01
 -12.825  0.1080E+00  0.1928E+01
 -12.815  0.1047E+00  0.1929E+01
 -12.805  0.1047E+00  0.1930E+01
 -12.795  0.1044E+00  0.1931E+01
 -12.785  0.1039E+00  0.1932E+01
 -12.775  0.1035E+00  0.1933E+01
 -12.765  0.1031E+00  0.1934E+01
 -12.755  0.1026E+00  0.1935E+01
 -12.745  0.1022E+00  0.1936E+01
 -12.735  0.1018E+00  0.1937E+01
 -12.725  0.1014E+00  0.1938E+01
 -12.715  0.1013E+00  0.1939E+01
 -12.705  0.1022E+00  0.1940E+01
 -12.695  0.1033E+00  0.1941E+01
 -12.685  0.1043E+00  0.1942E+01
